# dimensionless total [l(l+1)/2pi] C_l's
# for l=2 to 3000, i.e. number of multipoles equal to 2999
#
# -> if you prefer output in CAMB/HealPix/LensPix units/order, set 'format' to 'camb' in input file
# -> if you don't want to see such a header, set 'headers' to 'no' in input file
# -> for CMB lensing (phi), these are C_l^phi-phi for the lensing potential.
#    Remember the conversion factors:
#    C_l^dd (deflection) = l(l+1) C_l^phi-phi
#    C_l^gg (shear/convergence) = 1/4 (l(l+1))^2 C_l^phi-phi
#
# 1:l     2:TT                     3:EE                     4:TE                     5:BB                     6:phiphi                 7:TPhi                   8:Ephi               
    2       1.381672191350e-10       4.179499683042e-15       3.519335938597e-13       0.000000000000e+00       8.236345714466e-09       4.535748660639e-10      -1.842359971484e-12 
    3       1.306686611628e-10       5.354349835028e-15       3.955014520574e-13       0.000000000000e+00       5.068763596076e-09       3.217369154698e-10      -1.394920075649e-12 
    4       1.236001793442e-10       4.628866175840e-15       3.698083328653e-13       0.000000000000e+00       3.524743957048e-09       2.436997850127e-10      -9.127421857639e-13 
    5       1.183076845947e-10       3.086039434069e-15       3.148767439297e-13       0.000000000000e+00       2.631980817943e-09       1.925368525172e-10      -5.069340914634e-13 
    6       1.146780304027e-10       1.724512682358e-15       2.535647549075e-13       0.000000000000e+00       2.056887112627e-09       1.566785151193e-10      -2.081013463403e-13 
    7       1.123125102790e-10       9.315387484571e-16       1.990692151672e-13       0.000000000000e+00       1.660291802844e-09       1.303589812975e-10      -1.764541689021e-14 
    8       1.109311880171e-10       6.011013723785e-16       1.571595455681e-13       0.000000000000e+00       1.372925902098e-09       1.103958581544e-10       7.941422178355e-14 
    9       1.102859724224e-10       4.824289336715e-16       1.291091228613e-13       0.000000000000e+00       1.156601753806e-09       9.490323809275e-11       1.064376999508e-13 
   10       1.101461265379e-10       4.107510156126e-16       1.135895276303e-13       0.000000000000e+00       9.888512731597e-10       8.262925997053e-11       8.927909804402e-14 
   11       1.104529729843e-10       3.446472598562e-16       1.079387500862e-13       0.000000000000e+00       8.333804333911e-10       7.300890502927e-11       5.203124928802e-14 
   12       1.110547950877e-10       2.997606112309e-16       1.090991393531e-13       0.000000000000e+00       7.283489587542e-10       6.455586030561e-11       1.227599630283e-14 
   13       1.119012888961e-10       2.870889834201e-16       1.143864366943e-13       0.000000000000e+00       6.421078079389e-10       5.769182750995e-11      -1.798989759350e-14 
   14       1.129451304839e-10       2.986646823350e-16       1.217804103637e-13       0.000000000000e+00       5.703409157227e-10       5.171510541506e-11      -3.451240733569e-14 
   15       1.141729544406e-10       3.227444872751e-16       1.299915692682e-13       0.000000000000e+00       5.099194131228e-10       4.668819836492e-11      -3.750083238245e-14 
   16       1.155094877895e-10       3.568047338726e-16       1.383568923662e-13       0.000000000000e+00       4.585371753894e-10       4.235496666033e-11      -3.091279894099e-14 
   17       1.169823268978e-10       4.063743602033e-16       1.466585843699e-13       0.000000000000e+00       4.144517854992e-10       3.857283663213e-11      -1.994046105487e-14 
   18       1.185283011918e-10       4.768835176775e-16       1.551537304003e-13       0.000000000000e+00       3.761812864984e-10       3.527412595181e-11      -9.473326922609e-15 
   19       1.201586622914e-10       5.686595654066e-16       1.640642382811e-13       0.000000000000e+00       3.431210241143e-10       3.241157186597e-11      -2.116915708556e-15 
   20       1.218661557070e-10       6.797015659475e-16       1.735307424588e-13       0.000000000000e+00       3.139983638684e-10       2.986963970337e-11       4.178950523640e-16 
   21       1.236522716543e-10       8.093671293227e-16       1.835061897833e-13       0.000000000000e+00       2.883573021811e-10       2.760243463497e-11      -1.297255959031e-15 
   22       1.254909594115e-10       9.571661289164e-16       1.938038921713e-13       0.000000000000e+00       2.655859211323e-10       2.555359999235e-11      -5.508496637825e-15 
   23       1.273870924978e-10       1.123297541638e-15       2.040966098600e-13       0.000000000000e+00       2.453721977544e-10       2.371506676750e-11      -1.047337353554e-14 
   24       1.293343096930e-10       1.307992259383e-15       2.139695661728e-13       0.000000000000e+00       2.272498694389e-10       2.207081461375e-11      -1.433778042497e-14 
   25       1.313345664862e-10       1.511336477118e-15       2.231350620439e-13       0.000000000000e+00       2.110064528474e-10       2.060007272226e-11      -1.626983945060e-14 
   26       1.333766195455e-10       1.733605193191e-15       2.313466981452e-13       0.000000000000e+00       1.963485929484e-10       1.926615994349e-11      -1.593290617914e-14 
   27       1.354554408093e-10       1.976812942001e-15       2.384875000643e-13       0.000000000000e+00       1.831009164598e-10       1.805177963278e-11      -1.394333918248e-14 
   28       1.375592957300e-10       2.243491767482e-15       2.445119523267e-13       0.000000000000e+00       1.710354975447e-10       1.693805015782e-11      -1.130861560244e-14 
   29       1.396973480320e-10       2.535048070815e-15       2.494899509176e-13       0.000000000000e+00       1.600910560935e-10       1.592300202320e-11      -8.694803638100e-15 
   30       1.418740584752e-10       2.852516468542e-15       2.535672669966e-13       0.000000000000e+00       1.501504339861e-10       1.500085459640e-11      -6.780557744079e-15 
   31       1.440834201929e-10       3.196897043605e-15       2.568919313091e-13       0.000000000000e+00       1.410112931614e-10       1.415713093542e-11      -6.191227125132e-15 
   32       1.463284479383e-10       3.569248401404e-15       2.594078077083e-13       0.000000000000e+00       1.326266384877e-10       1.338335192623e-11      -6.736511074974e-15 
   33       1.486063133094e-10       3.970621214702e-15       2.609824766216e-13       0.000000000000e+00       1.249373356090e-10       1.266609943971e-11      -7.873686276506e-15 
   34       1.509072859645e-10       4.401982340518e-15       2.614681156999e-13       0.000000000000e+00       1.178359742930e-10       1.198863489209e-11      -9.001023492717e-15 
   35       1.532335632205e-10       4.864049616100e-15       2.607352286864e-13       0.000000000000e+00       1.112863424336e-10       1.135292732421e-11      -9.838986628178e-15 
   36       1.555852956801e-10       5.357386240334e-15       2.586483399373e-13       0.000000000000e+00       1.052360374294e-10       1.076457531033e-11      -1.017395959241e-14 
   37       1.579583672161e-10       5.882527060981e-15       2.550843670287e-13       0.000000000000e+00       9.960648342552e-11       1.022619859896e-11      -9.836467749694e-15 
   38       1.603568109602e-10       6.440292905168e-15       2.500301155820e-13       0.000000000000e+00       9.438322828012e-11       9.735645862797e-12      -8.978594150781e-15 
   39       1.627833492161e-10       7.031573808319e-15       2.435177113543e-13       0.000000000000e+00       8.954978451572e-11       9.286663903023e-12      -7.892037511781e-15 
   40       1.652353430499e-10       7.657243577821e-15       2.356001084030e-13       0.000000000000e+00       8.506015987310e-11       8.868958166961e-12      -6.939763704998e-15 
   41       1.677075673854e-10       8.318114635399e-15       2.263299909498e-13       0.000000000000e+00       8.085489948249e-11       8.471326036271e-12      -6.460906782693e-15 
   42       1.702029882867e-10       9.014787328403e-15       2.156852067095e-13       0.000000000000e+00       7.692168153537e-11       8.093070085266e-12      -6.437183732009e-15 
   43       1.727245379620e-10       9.747749838962e-15       2.036211685069e-13       0.000000000000e+00       7.325011462887e-11       7.735749427661e-12      -6.725627206488e-15 
   44       1.752717424053e-10       1.051741409760e-14       1.900908318246e-13       0.000000000000e+00       6.981355297653e-11       7.399952153083e-12      -7.146696846751e-15 
   45       1.778423168122e-10       1.132415653363e-14       1.750460241566e-13       0.000000000000e+00       6.657862586380e-11       7.085432610405e-12      -7.524043036715e-15 
   46       1.804383186995e-10       1.216846443440e-14       1.584425829370e-13       0.000000000000e+00       6.354027324380e-11       6.791782614811e-12      -7.823300140627e-15 
   47       1.830612582201e-10       1.305082642611e-14       1.402362657184e-13       0.000000000000e+00       6.069498282195e-11       6.517809017676e-12      -8.050942437742e-15 
   48       1.857101023765e-10       1.397169001064e-14       1.203810785923e-13       0.000000000000e+00       5.803022217947e-11       6.261250289541e-12      -8.216018496829e-15 
   49       1.883810477289e-10       1.493146008104e-14       9.882908242441e-14       0.000000000000e+00       5.552376786531e-11       6.018700277759e-12      -8.330311263898e-15 
   50       1.910696779009e-10       1.593047104393e-14       7.553555721170e-14       0.000000000000e+00       5.315040379530e-11       5.786581908972e-12      -8.408796589785e-15 
   51       1.937786538191e-10       1.696889770999e-14       5.047659728131e-14       0.000000000000e+00       5.090571644442e-11       5.564556763587e-12      -8.470794138202e-15 
   52       1.965117180131e-10       1.804681764962e-14       2.363595717556e-14       0.000000000000e+00       4.878759888464e-11       5.352909202167e-12      -8.539405600120e-15 
   53       1.992713799241e-10       1.916423281020e-14      -4.999832044959e-15       0.000000000000e+00       4.678912956534e-11       5.151551112541e-12      -8.641413558852e-15 
   54       2.020588008380e-10       2.032106678949e-14      -3.544140441899e-14       0.000000000000e+00       4.489824819614e-11       4.959995076624e-12      -8.807455622006e-15 
   55       2.048743416944e-10       2.151721124313e-14      -6.769673605806e-14       0.000000000000e+00       4.310143803155e-11       4.777589383284e-12      -9.062314582376e-15 
   56       2.077196294849e-10       2.275268485382e-14      -1.017718612984e-13       0.000000000000e+00       4.139658645810e-11       4.604352906728e-12      -9.392565299648e-15 
   57       2.105958026446e-10       2.402750907771e-14      -1.376702321953e-13       0.000000000000e+00       3.978275153643e-11       4.440300629402e-12      -9.771195615346e-15 
   58       2.135028058543e-10       2.534166167588e-14      -1.753924506130e-13       0.000000000000e+00       3.825627114567e-11       4.285183697798e-12      -1.016657978632e-14 
   59       2.164393008002e-10       2.669507590212e-14      -2.149362190123e-13       0.000000000000e+00       3.681059495987e-11       4.138472791068e-12      -1.054226752689e-14 
   60       2.194025769339e-10       2.808763969066e-14      -2.562962912376e-13       0.000000000000e+00       3.543611642435e-11       3.999341489627e-12      -1.085677305109e-14 
   61       2.223898118964e-10       2.951911703214e-14      -2.994648543423e-13       0.000000000000e+00       3.412284179413e-11       3.866896507231e-12      -1.107304717025e-14 
   62       2.254023852809e-10       3.098889331618e-14      -3.444328855473e-13       0.000000000000e+00       3.286947744417e-11       3.740966401041e-12      -1.118985531965e-14 
   63       2.284423791888e-10       3.249617112676e-14      -3.911890139238e-13       0.000000000000e+00       3.167609342538e-11       3.621461188978e-12      -1.121710037151e-14 
   64       2.315112685108e-10       3.404003979396e-14      -4.397190814006e-13       0.000000000000e+00       3.054138993266e-11       3.508132483789e-12      -1.116685545040e-14 
   65       2.346098745101e-10       3.561947211288e-14      -4.900061072279e-13       0.000000000000e+00       2.946261929907e-11       3.400564694446e-12      -1.105346021140e-14 
   66       2.377383184066e-10       3.723332106240e-14      -5.420302524409e-13       0.000000000000e+00       2.843550799007e-11       3.298166227548e-12      -1.089361711835e-14 
   67       2.408959749605e-10       3.888031652417e-14      -5.957687843244e-13       0.000000000000e+00       2.745417859769e-11       3.200160688718e-12      -1.070648772201e-14 
   68       2.440820787613e-10       4.055919668774e-14      -6.511976353621e-13       0.000000000000e+00       2.651272022297e-11       3.105786168492e-12      -1.051011190415e-14 
   69       2.472977895063e-10       4.226914051958e-14      -7.082965263330e-13       0.000000000000e+00       2.561044349106e-11       3.014959658231e-12      -1.030960786873e-14 
   70       2.505444637406e-10       4.400941743194e-14      -7.670448222205e-13       0.000000000000e+00       2.474755509989e-11       2.927732074744e-12      -1.010674313092e-14 
   71       2.538230099881e-10       4.577926051051e-14      -8.274200347238e-13       0.000000000000e+00       2.392356844053e-11       2.844088673227e-12      -9.903402193605e-15 
   72       2.571338590289e-10       4.757786667795e-14      -8.893978275020e-13       0.000000000000e+00       2.313726774960e-11       2.763945570518e-12      -9.701588783806e-15 
   73       2.604769341755e-10       4.940439685745e-14      -9.529520214168e-13       0.000000000000e+00       2.238667226178e-11       2.687146268350e-12      -9.503428089090e-15 
   74       2.638516215505e-10       5.125797613623e-14      -1.018054599777e-12       0.000000000000e+00       2.166900036222e-11       2.613458176603e-12      -9.311168993980e-15 
   75       2.672567403632e-10       5.313769392906e-14      -1.084675713581e-12       0.000000000000e+00       2.098063373904e-11       2.542569136560e-12      -9.127186316362e-15 
   76       2.706911301448e-10       5.504254051718e-14      -1.152783290766e-12       0.000000000000e+00       2.031801585939e-11       2.474169569681e-12      -8.953670160061e-15 
   77       2.741556017871e-10       5.697120294318e-14      -1.222341770089e-12       0.000000000000e+00       1.968061579238e-11       2.408223903834e-12      -8.791623629430e-15 
   78       2.776512899374e-10       5.892223202074e-14      -1.293313144818e-12       0.000000000000e+00       1.906844223681e-11       2.344742556358e-12      -8.641685557133e-15 
   79       2.811790508072e-10       6.089410153469e-14      -1.365657335411e-12       0.000000000000e+00       1.848114072610e-11       2.283699006433e-12      -8.504423061679e-15 
   80       2.847394451003e-10       6.288520709987e-14      -1.439332186646e-12       0.000000000000e+00       1.791797693982e-11       2.225028074157e-12      -8.380327367899e-15 
   81       2.883327209413e-10       6.489386502000e-14      -1.514293464739e-12       0.000000000000e+00       1.737782001516e-11       2.168624199616e-12      -8.269809627419e-15 
   82       2.919587968032e-10       6.691831114653e-14      -1.590494854468e-12       0.000000000000e+00       1.685912585851e-11       2.114339721961e-12      -8.173196739134e-15 
   83       2.956172444362e-10       6.895669973746e-14      -1.667887956298e-12       0.000000000000e+00       1.635992045698e-11       2.061983158483e-12      -8.090727169682e-15 
   84       2.993075713816e-10       7.100717260597e-14      -1.746422803282e-12       0.000000000000e+00       1.587827976671e-11       2.011366992683e-12      -8.022277098301e-15 
   85       3.030301597220e-10       7.306808223674e-14      -1.826049516519e-12       0.000000000000e+00       1.541389734095e-11       1.962463910630e-12      -7.966495843678e-15 
   86       3.067854523796e-10       7.513780373733e-14      -1.906716920135e-12       0.000000000000e+00       1.496674719237e-11       1.915273430473e-12      -7.921518779829e-15 
   87       3.105736555072e-10       7.721466787671e-14      -1.988372051685e-12       0.000000000000e+00       1.453660210275e-11       1.869773820574e-12      -7.885215684746e-15 
   88       3.143947264515e-10       7.929696112547e-14      -2.070960168006e-12       0.000000000000e+00       1.412302528039e-11       1.825921210661e-12      -7.855182028512e-15 
   89       3.182483617167e-10       8.138292569600e-14      -2.154424751077e-12       0.000000000000e+00       1.372536201745e-11       1.783648702992e-12      -7.828730261405e-15 
   90       3.221339849271e-10       8.347075958268e-14      -2.238707513884e-12       0.000000000000e+00       1.334273134729e-11       1.742865483508e-12      -7.802881102012e-15 
   91       3.260507347911e-10       8.555861660211e-14      -2.323748406270e-12       0.000000000000e+00       1.297401770184e-11       1.703455932994e-12      -7.774354825341e-15 
   92       3.299974530638e-10       8.764460643328e-14      -2.409485620802e-12       0.000000000000e+00       1.261786256892e-11       1.665278738240e-12      -7.739562550926e-15 
   93       3.339730370155e-10       8.972682258875e-14      -2.495856464543e-12       0.000000000000e+00       1.227298688412e-11       1.628201447352e-12      -7.695432262132e-15 
   94       3.379775836206e-10       9.180343105318e-14      -2.582800111648e-12       0.000000000000e+00       1.193923179215e-11       1.592212011312e-12      -7.642047897499e-15 
   95       3.420113960009e-10       9.387259511241e-14      -2.670255277516e-12       0.000000000000e+00       1.161665971968e-11       1.557322452957e-12      -7.580392918397e-15 
   96       3.460746273142e-10       9.593244902822e-14      -2.758159407272e-12       0.000000000000e+00       1.130523383628e-11       1.523534520671e-12      -7.511553653675e-15 
   97       3.501672737219e-10       9.798109846190e-14      -2.846448693510e-12       0.000000000000e+00       1.100481425173e-11       1.490839286078e-12      -7.436722045987e-15 
   98       3.542891673551e-10       1.000166208979e-13      -2.935058094038e-12       0.000000000000e+00       1.071515421331e-11       1.459216741737e-12      -7.357198398122e-15 
   99       3.584399692815e-10       1.020370660674e-13      -3.023921349624e-12       0.000000000000e+00       1.043589630306e-11       1.428635398837e-12      -7.274394119330e-15 
  100       3.626191624723e-10       1.040404563720e-13      -3.112971001741e-12       0.000000000000e+00       1.016656863511e-11       1.399051884889e-12      -7.189834471654e-15 
  101       3.668260447688e-10       1.060247873070e-13      -3.202138410315e-12       0.000000000000e+00       9.906581052970e-12       1.370410541425e-12      -7.105161316253e-15 
  102       3.710597218492e-10       1.079880278855e-13      -3.291353771465e-12       0.000000000000e+00       9.655221326778e-12       1.342643021689e-12      -7.022135859740e-15 
  103       3.753191001950e-10       1.099281210615e-13      -3.380546135253e-12       0.000000000000e+00       9.411651350642e-12       1.315667888332e-12      -6.942641400498e-15 
  104       3.796031174948e-10       1.118430352069e-13      -3.469643983057e-12       0.000000000000e+00       9.175097161155e-12       1.289409756306e-12      -6.868279275635e-15 
  105       3.839114844479e-10       1.137309255474e-13      -3.558577010283e-12       0.000000000000e+00       8.945456417104e-12       1.263860533105e-12      -6.799088624627e-15 
  106       3.882440305216e-10       1.155899954254e-13      -3.647274618679e-12       0.000000000000e+00       8.722766274107e-12       1.239025739684e-12      -6.734657999246e-15 
  107       3.926004710930e-10       1.174184481669e-13      -3.735665401812e-12       0.000000000000e+00       8.507015238722e-12       1.214905518743e-12      -6.674515016344e-15 
