# dimensionless total lensed [l(l+1)/2pi] C_l's
# for l=2 to 2500, i.e. number of multipoles equal to 2499
#
# -> if you prefer output in CAMB/HealPix/LensPix units/order, set 'format' to 'camb' in input file
# -> if you don't want to see such a header, set 'headers' to 'no' in input file
# -> for CMB lensing (phi), these are C_l^phi-phi for the lensing potential.
#    Remember the conversion factors:
#    C_l^dd (deflection) = l(l+1) C_l^phi-phi
#    C_l^gg (shear/convergence) = 1/4 (l(l+1))^2 C_l^phi-phi
#
# 1:l     2:TT                     3:EE                     4:TE                     5:BB                     6:phiphi                 7:TPhi                   8:Ephi               
    2       1.381677854304e-10       4.179731719782e-15       3.519340066104e-13       2.309814108509e-19       8.236368308096e-09       4.535746413454e-10      -1.842359466788e-12 
    3       1.306697027052e-10       5.354811819745e-15       3.955017499253e-13       4.620578951682e-19       5.068757817772e-09       3.217367893554e-10      -1.394919911835e-12 
    4       1.236018503517e-10       4.629636057164e-15       3.698086106838e-13       7.703058579771e-19       3.524741135640e-09       2.436997395839e-10      -9.127419527713e-13 
    5       1.183101409308e-10       3.087194960655e-15       3.148768683349e-13       1.155846808103e-18       2.631980077232e-09       1.925368717881e-10      -5.069338556980e-13 
    6       1.146813993426e-10       1.726131381846e-15       2.535646845439e-13       1.618828236918e-18       2.056887148619e-09       1.566785695892e-10      -2.081012163236e-13 
    7       1.123169179902e-10       9.336981139234e-16       1.990689369397e-13       2.159420886232e-18       1.660292198939e-09       1.303589842902e-10      -1.764541224401e-14 
    8       1.109367979057e-10       6.038791983119e-16       1.571589487502e-13       2.777815658231e-18       1.372926164090e-09       1.103958020888e-10       7.941417365459e-14 
    9       1.102929335486e-10       4.859033371739e-16       1.291081327529e-13       3.474220258954e-18       1.156601644374e-09       9.490320293821e-11       1.064376890358e-13 
   10       1.101545626806e-10       4.150002438380e-16       1.135880806063e-13       4.248855673273e-18       9.888507984114e-10       8.262926944196e-11       8.927914823158e-14 
   11       1.104629855598e-10       3.497497793178e-16       1.079366552595e-13       5.101952572335e-18       8.333804329358e-10       7.300888841779e-11       5.203132459405e-14 
   12       1.110665164045e-10       3.057951931779e-16       1.090962320862e-13       6.033747753953e-18       7.283489585797e-10       6.455582387109e-11       1.227608095713e-14 
   13       1.119148357291e-10       2.941345382519e-16       1.143825011447e-13       7.044480712445e-18       6.421078076653e-10       5.769183854119e-11      -1.798976645930e-14 
   14       1.129606168280e-10       3.068004756226e-16       1.217751552220e-13       8.134390427190e-18       5.703409153515e-10       5.171514722200e-11      -3.451219670516e-14 
   15       1.141904746654e-10       3.320501198960e-16       1.299847705886e-13       9.303712448937e-18       5.099194126634e-10       4.668819348165e-11      -3.750058161869e-14 
   16       1.155291494007e-10       3.673600603077e-16       1.383482163580e-13       1.055267635009e-17       4.585371747746e-10       4.235492808823e-11      -3.091261033968e-14 
   17       1.170042514404e-10       4.182595256481e-16       1.466477439263e-13       1.188150359030e-17       4.144517847412e-10       3.857284883329e-11      -1.994042169578e-14 
   18       1.185525698185e-10       4.901785341230e-16       1.551403849536e-13       1.329040565178e-17       3.761812859325e-10       3.527415041185e-11      -9.473435887704e-15 
   19       1.201853559283e-10       5.834446954234e-16       1.640480478418e-13       1.477958372590e-17       3.431210234901e-10       3.241156751083e-11      -2.117108611198e-15 
   20       1.218953730536e-10       6.960574494445e-16       1.735113906129e-13       1.634922596117e-17       3.139983631844e-10       2.986962145285e-11       4.177261198562e-16 
   21       1.236841051801e-10       8.273743795085e-16       1.834832724820e-13       1.799950996471e-17       2.883573014732e-10       2.760242504555e-11      -1.297328806174e-15 
   22       1.255254879428e-10       9.769051574147e-16       1.937768877522e-13       1.973059978413e-17       2.655859204083e-10       2.555360915215e-11      -5.508470185042e-15 
   23       1.274243934097e-10       1.144848668456e-15       2.040649971785e-13       2.154264982727e-17       2.453721970361e-10       2.371508199737e-11      -1.047327862599e-14 
   24       1.293744641087e-10       1.331435759653e-15       2.139328711706e-13       2.343580179162e-17       2.272498687663e-10       2.207080465589e-11      -1.433766767707e-14 
   25       1.313776606052e-10       1.536752750481e-15       2.230928402901e-13       2.541019024522e-17       2.110064522184e-10       2.060004227222e-11      -1.626974967914e-14 
   26       1.334227444311e-10       1.761074699220e-15       2.312985158851e-13       2.746593892522e-17       1.963485923090e-10       1.926615922733e-11      -1.593285714920e-14 
   27       1.355046843616e-10       2.006415568385e-15       2.384328415820e-13       2.960316608895e-17       1.831009157902e-10       1.805183195784e-11      -1.394332649866e-14 
   28       1.376117403923e-10       2.275306642520e-15       2.444501978595e-13       3.182198198424e-17       1.710354968824e-10       1.693813081301e-11      -1.130861482494e-14 
   29       1.397530749582e-10       2.569154076775e-15       2.494204664277e-13       3.412249752348e-17       1.600910554790e-10       1.592307787683e-11      -8.694793547030e-15 
   30       1.419331489699e-10       2.888992413847e-15       2.534894398932e-13       3.650481706928e-17       1.501504334424e-10       1.500089760564e-11      -6.780530113413e-15 
   31       1.441459549257e-10       3.235821606994e-15       2.568051803887e-13       3.896903839840e-17       1.410112926913e-10       1.415712214649e-11      -6.191187489242e-15 
   32       1.463945023024e-10       3.610699767214e-15       2.593115801412e-13       4.151526356037e-17       1.326266380835e-10       1.338328985792e-11      -6.736467126167e-15 
   33       1.486759550338e-10       4.014676895720e-15       2.608762543377e-13       4.414359189882e-17       1.249373352533e-10       1.266600634630e-11      -7.873644047530e-15 
   34       1.509805756517e-10       4.448719102808e-15       2.613514095916e-13       4.685411872329e-17       1.178359739611e-10       1.198855391766e-11      -9.000986773196e-15 
   35       1.533105619985e-10       4.913543499836e-15       2.606075165561e-13       4.964694055732e-17       1.112863421075e-10       1.135289059151e-11      -9.838956713850e-15 
   36       1.556660682860e-10       5.409712512573e-15       2.585090401180e-13       5.252215185692e-17       1.052360371047e-10       1.076459051999e-11      -1.017393473514e-14 
   37       1.580429815006e-10       5.937760184892e-15       2.549328480302e-13       5.547984314578e-17       9.960648311097e-11       1.022624930335e-11      -9.836443346370e-15 
   38       1.604453312518e-10       6.498506661506e-15       2.498657817349e-13       5.852009896804e-17       9.438322798615e-11       9.735713892245e-12      -8.978565927364e-15 
   39       1.628758337710e-10       7.092841314690e-15       2.433400380678e-13       6.164299939554e-17       8.954978425044e-11       9.286736830236e-12      -7.892002705556e-15 
   40       1.653318430596e-10       7.721637268654e-15       2.354086582902e-13       6.484862065599e-17       8.506015964167e-11       8.869030987556e-12      -6.939721480716e-15 
   41       1.678081271017e-10       8.385706191542e-15       2.261244140197e-13       6.813703220583e-17       8.085489928676e-11       8.471400935005e-12      -6.460858246375e-15 
   42       1.703076491010e-10       9.085647433187e-15       2.154651842503e-13       7.150828665507e-17       7.692168137484e-11       8.093149434781e-12      -6.437130513187e-15 
   43       1.728333397033e-10       9.821948053207e-15       2.033863965372e-13       7.496242666577e-17       7.325011450072e-11       7.735833544330e-12      -6.725571052917e-15 
   44       1.753847235785e-10       1.059501877888e-14       1.898410196283e-13       7.849948751592e-17       6.981355287522e-11       7.400038866895e-12      -7.146639607442e-15 
   45       1.779595144448e-10       1.140523476616e-14       1.747809035338e-13       8.211949332777e-17       6.657862578151e-11       7.085517401648e-12      -7.523986547148e-15 
   46       1.805597668420e-10       1.225308200042e-14       1.581619539293e-13       8.582244475361e-17       6.354027317358e-11       6.791860712401e-12      -7.823245783822e-15 
   47       1.831869874145e-10       1.313904774404e-14       1.399400163993e-13       8.960832735902e-17       6.069498275891e-11       6.517876079565e-12      -8.050890929512e-15 
   48       1.858401394851e-10       1.406357805963e-14       1.200691952783e-13       9.347711458213e-17       5.803022212132e-11       6.261302550861e-12      -8.215969751529e-15 
   49       1.885154157542e-10       1.502707632386e-14       9.850166030123e-14       9.742876737815e-17       5.552376781282e-11       6.018734707937e-12      -8.330264252854e-15 
   50       1.912083967840e-10       1.602987532712e-14       7.519280474292e-14       1.014632338526e-16       5.315040375205e-11       5.786596392753e-12      -8.408749476253e-15 
   51       1.939217445057e-10       1.707214809251e-14       5.011881901154e-14       1.055804488682e-16       5.090571641378e-11       5.564550340642e-12      -8.470745347419e-15 
   52       1.966592041233e-10       1.815397028070e-14       2.326355299198e-14       1.097803337168e-16       4.878759886877e-11       5.352882279522e-12      -8.539354195427e-15 
   53       1.994232885473e-10       1.927534182392e-14      -5.386361430312e-15       1.140627957742e-16       4.678912956498e-11       5.151505672900e-12      -8.641359362035e-15 
   54       2.022151633654e-10       2.043618419674e-14      -3.584145188404e-14       1.184277281437e-16       4.489824821039e-11       4.959934896364e-12      -8.807399339672e-15 
   55       2.050351933252e-10       2.163638682180e-14      -6.810958364905e-14       1.228750176911e-16       4.310143805799e-11       4.777519828314e-12      -9.062257718194e-15 
   56       2.078850042815e-10       2.287596603903e-14      -1.021966798734e-13       1.274045723011e-16       4.139658649427e-11       4.604279316997e-12      -9.392509348063e-15 
   57       2.107657319980e-10       2.415494084740e-14      -1.381060778321e-13       1.320162997685e-16       3.978275158025e-11       4.440227781085e-12      -9.771141805898e-15 
   58       2.136773182002e-10       2.547328643288e-14      -1.758382597866e-13       1.367100999722e-16       3.825627119559e-11       4.285115659587e-12      -1.016652903000e-14 
   59       2.166184213197e-10       2.683093335362e-14      -2.153908037183e-13       1.414858648466e-16       3.681059501490e-11       4.138412773301e-12      -1.054222035996e-14 
   60       2.195863272379e-10       2.822776672506e-14      -2.567583340626e-13       1.463434783517e-16       3.543611648419e-11       3.999291686276e-12      -1.085672957634e-14 
   61       2.225782094774e-10       2.966354773026e-14      -2.999329057553e-13       1.512828319596e-16       3.412284185913e-11       3.866858129177e-12      -1.107300707754e-14 
   62       2.255954422440e-10       3.113765940681e-14      -3.449053685610e-13       1.563038752388e-16       3.286947751473e-11       3.740940349599e-12      -1.118981817052e-14 
   63       2.286401015124e-10       3.264930209341e-14      -3.916642229525e-13       1.614065766238e-16       3.167609350181e-11       3.621448220846e-12      -1.121706567478e-14 
   64       2.317136554872e-10       3.419756285509e-14      -4.401951790073e-13       1.665909093567e-16       3.054139001514e-11       3.508133189401e-12      -1.116682266122e-14 
   65       2.348169181630e-10       3.578141220381e-14      -4.904811208899e-13       1.718568519500e-16       2.946261938766e-11       3.400579475469e-12      -1.105342873038e-14 
   66       2.379500028861e-10       3.739970081902e-14      -5.425020713342e-13       1.772043886498e-16       2.843550808469e-11       3.298195273523e-12      -1.089358629074e-14 
   67       2.411122759145e-10       3.905115626827e-14      -5.962351561260e-13       1.826335098996e-16       2.745417869808e-11       3.200203952850e-12      -1.070645683692e-14 
   68       2.443029640640e-10       4.073451452022e-14      -6.516561642982e-13       1.881442209513e-16       2.651272032875e-11       3.105843304420e-12      -1.051008024204e-14 
   69       2.475232244250e-10       4.244895275840e-14      -7.087446752128e-13       1.937365686921e-16       2.561044360182e-11       3.015029832485e-12      -1.030957490506e-14 
   70       2.507744125264e-10       4.419373877855e-14      -7.674799113288e-13       1.994106211108e-16       2.474755521525e-11       2.927813876679e-12      -1.010670861546e-14 
   71       2.540574361789e-10       4.596810412080e-14      -8.278392396078e-13       2.051664602897e-16       2.392356856012e-11       2.844180059089e-12      -9.903366185666e-15 
   72       2.573727257648e-10       4.777124423761e-14      -8.897981768073e-13       2.110041830762e-16       2.313726787311e-11       2.764043805684e-12      -9.701551688740e-15 
   73       2.607202045272e-10       4.960231866170e-14      -9.533303947748e-13       2.169239017545e-16       2.238667238893e-11       2.687247867732e-12      -9.503390696051e-15 
   74       2.640992588592e-10       5.146045117405e-14      -1.018407725740e-12       2.229257447171e-16       2.166900049279e-11       2.613558843229e-12      -9.311132514982e-15 
   75       2.675087085935e-10       5.334472997186e-14      -1.085000167611e-12       2.290098571366e-16       2.098063387287e-11       2.542663698321e-12      -9.127152426630e-15 
   76       2.709473928325e-10       5.525414423463e-14      -1.153075490549e-12       2.351763943729e-16       2.031801599637e-11       2.474252225066e-12      -8.953640887113e-15 
   77       2.744161164493e-10       5.718738009669e-14      -1.222597962175e-12       2.414254993224e-16       1.968061593238e-11       2.408289463739e-12      -8.791600753717e-15 
   78       2.779160062113e-10       5.914298760159e-14      -1.293529398440e-12       2.477573221397e-16       1.906844237971e-11       2.344786868978e-12      -8.641670413973e-15 
   79       2.814479099169e-10       6.111943988544e-14      -1.365829538875e-12       2.541720276491e-16       1.848114087177e-11       2.283719091920e-12      -8.504416486023e-15 
   80       2.850123793063e-10       6.311513204069e-14      -1.439456043716e-12       2.606697958676e-16       1.791797708807e-11       2.225022263821e-12      -8.380329637249e-15 
   81       2.886096529737e-10       6.512837997985e-14      -1.514364491015e-12       2.672508225272e-16       1.737782016583e-11       2.168592279670e-12      -8.269820402907e-15 
   82       2.922396392780e-10       6.715741929931e-14      -1.590508373763e-12       2.739153195980e-16       1.685912601140e-11       2.114283081811e-12      -8.173215004755e-15 
   83       2.959018992552e-10       6.920040414302e-14      -1.667839097003e-12       2.806635158105e-16       1.635992061186e-11       2.061904943556e-12      -8.090751169687e-15 
   84       2.995959311391e-10       7.125547628610e-14      -1.746306503886e-12       2.874956536357e-16       1.587827992334e-11       2.011271874751e-12      -8.022304451983e-15 
   85       3.033221155521e-10       7.332098803314e-14      -1.825860560343e-12       2.944119785047e-16       1.541389749911e-11       1.962356627785e-12      -7.966524230168e-15 
   86       3.070808964050e-10       7.539531436030e-14      -1.906449945710e-12       3.014127487518e-16       1.496674735182e-11       1.915158360868e-12      -7.921546144441e-15 
   87       3.108724813763e-10       7.747678602416e-14      -1.988021554543e-12       3.084982394546e-16       1.453660226328e-11       1.869654923147e-12      -7.885240275634e-15 
   88       3.146968298930e-10       7.956368960567e-14      -2.070520502620e-12       3.156687428973e-16       1.412302544179e-11       1.825801963897e-12      -7.855202434498e-15 
   89       3.185536411112e-10       8.165426755406e-14      -2.153890132955e-12       3.229245690336e-16       1.372536217954e-11       1.783532041724e-12      -7.828745450977e-15 
   90       3.224423418963e-10       8.374671823077e-14      -2.238072021800e-12       3.302660459498e-16       1.334273150989e-11       1.742753733761e-12      -7.802890463493e-15 
   91       3.263620748042e-10       8.583919595334e-14      -2.323005984657e-12       3.376935203282e-16       1.297401786478e-11       1.703350744859e-12      -7.774358208221e-15 
   92       3.303116860614e-10       8.792981103939e-14      -2.408630082280e-12       3.452073579097e-16       1.261786273206e-11       1.665181016791e-12      -7.739560308372e-15 
   93       3.342900755249e-10       9.001665803225e-14      -2.494881496098e-12       3.528079517206e-16       1.227298704736e-11       1.628111426338e-12      -7.695425197618e-15 
   94       3.382973328766e-10       9.209790513883e-14      -2.581699292038e-12       3.604957471593e-16       1.193923195536e-11       1.592129783993e-12      -7.642036904781e-15 
   95       3.423337508850e-10       9.417171838702e-14      -2.669022085420e-12       3.682712215561e-16       1.161665988275e-11       1.557248111241e-12      -7.580378883978e-15 
   96       3.463994716962e-10       9.623623506748e-14      -2.756787226285e-12       3.761348773088e-16       1.130523399910e-11       1.523468155669e-12      -7.511537452029e-15 
   97       3.504944797828e-10       9.828956416436e-14      -2.844930817336e-12       3.840872424517e-16       1.100481441419e-11       1.490780988682e-12      -7.436704534633e-15 
   98       3.546185948939e-10       1.003297867861e-13      -2.933387731880e-12       3.921288712261e-16       1.071515437530e-11       1.459166603224e-12      -7.357180412530e-15 
   99       3.587714650039e-10       1.023549565962e-13      -3.022091631767e-12       4.002603446492e-16       1.043589646449e-11       1.428593511498e-12      -7.274376467663e-15 
  100       3.629525592626e-10       1.043631002439e-13      -3.110974985337e-12       4.084822710841e-16       1.016656879589e-11       1.399018342687e-12      -7.189817929352e-15 
  101       3.671611609438e-10       1.063522177952e-13      -3.199969085355e-12       4.167952868096e-16       9.906581213002e-12       1.370385440669e-12      -7.105146620452e-15 
  102       3.713963603954e-10       1.083202831633e-13      -3.289004066956e-12       4.252000565898e-16       9.655221485981e-12       1.342626461742e-12      -7.022123703523e-15 
  103       3.756570479884e-10       1.102652445395e-13      -3.378008925586e-12       4.336972742435e-16       9.411651508937e-12       1.315659972341e-12      -6.942632426995e-15 
  104       3.799421473445e-10       1.121850759491e-13      -3.466912095154e-12       4.422876430912e-16       9.175097318469e-12       1.289410570792e-12      -6.868274061738e-15 
  105       3.842513660849e-10       1.140779389232e-13      -3.555643232790e-12       4.509718130604e-16       8.945456573368e-12       1.263870060827e-12      -6.799087632336e-15 
  106       3.885845338245e-10       1.159420435709e-13      -3.644131709752e-12       4.597504361064e-16       8.722766429250e-12       1.239043830221e-12      -6.734661554697e-15 
  107       3.929413665932e-10       1.177756003854e-13      -3.732306096550e-12       4.686241859210e-16       8.507015392676e-12       1.214931879231e-12      -6.674523298377e-15 
