# dimensionless total lensed [l(l+1)/2pi] C_l's
# for l=2 to 2500, i.e. number of multipoles equal to 2499
#
# -> if you prefer output in CAMB/HealPix/LensPix units/order, set 'format' to 'camb' in input file
# -> if you don't want to see such a header, set 'headers' to 'no' in input file
# -> for CMB lensing (phi), these are C_l^phi-phi for the lensing potential.
#    Remember the conversion factors:
#    C_l^dd (deflection) = l(l+1) C_l^phi-phi
#    C_l^gg (shear/convergence) = 1/4 (l(l+1))^2 C_l^phi-phi
#
# 1:l     2:TT                     3:EE                     4:TE                     5:BB                     6:phiphi                 7:TPhi                   8:Ephi               
    2       1.381676922303e-10       4.179730664559e-15       3.519335898547e-13       2.309814738056e-19       8.236345714466e-09       4.535748660639e-10      -1.842359971484e-12 
    3       1.306696050614e-10       5.354811893473e-15       3.955014342064e-13       4.620580208714e-19       5.068763596076e-09       3.217369154698e-10      -1.394920075649e-12 
    4       1.236017474776e-10       4.629636483991e-15       3.698082815639e-13       7.703060670370e-19       3.524743957048e-09       2.436997850127e-10      -9.127421857639e-13 
    5       1.183100275099e-10       3.087195288321e-15       3.148766270346e-13       1.155847120888e-18       2.631980817943e-09       1.925368525172e-10      -5.069340914634e-13 
    6       1.146812951832e-10       1.726131530457e-15       2.535645249947e-13       1.618828673525e-18       2.056887112627e-09       1.566785151193e-10      -2.081013463403e-13 
    7       1.123168400541e-10       9.336982150594e-16       1.990688070282e-13       2.159421466473e-18       1.660291802844e-09       1.303589812975e-10      -1.764541689021e-14 
    8       1.109367215680e-10       6.038792819411e-16       1.571588739768e-13       2.777816401636e-18       1.372925902098e-09       1.103958581544e-10       7.941422178355e-14 
    9       1.102928438945e-10       4.859033301779e-16       1.291080806360e-13       3.474221184795e-18       1.156601753806e-09       9.490323809275e-11       1.064376999508e-13 
   10       1.101544652599e-10       4.150001786291e-16       1.135879840045e-13       4.248856800602e-18       9.888512731597e-10       8.262925997053e-11       8.927909804402e-14 
   11       1.104629033965e-10       3.497497164248e-16       1.079365493943e-13       5.101953920045e-18       8.333804333911e-10       7.300890502927e-11       5.203124928802e-14 
   12       1.110664367730e-10       3.057951431302e-16       1.090961000294e-13       6.033749340846e-18       7.283489587542e-10       6.455586030561e-11       1.227599630283e-14 
   13       1.119147567080e-10       2.941346293692e-16       1.143823505759e-13       7.044482557316e-18       6.421078079389e-10       5.769182750995e-11      -1.798989759350e-14 
   14       1.129605347607e-10       3.068007347796e-16       1.217750422806e-13       8.134392548916e-18       5.703409157227e-10       5.171510541506e-11      -3.451240733569e-14 
   15       1.141904012911e-10       3.320504834782e-16       1.299846569014e-13       9.303714866570e-18       5.099194131228e-10       4.668819836492e-11      -3.750083238245e-14 
   16       1.155290794374e-10       3.673604411358e-16       1.383481463489e-13       1.055267908294e-17       4.585371753894e-10       4.235496666033e-11      -3.091279894099e-14 
   17       1.170041620653e-10       4.182597551611e-16       1.466476886052e-13       1.188150665803e-17       4.144517854992e-10       3.857283663213e-11      -1.994046105487e-14 
   18       1.185524755140e-10       4.901787598627e-16       1.551403425815e-13       1.329040907447e-17       3.761812864984e-10       3.527412595181e-11      -9.473326922609e-15 
   19       1.201852686970e-10       5.834449645762e-16       1.640479905216e-13       1.477958752408e-17       3.431210241143e-10       3.241157186597e-11      -2.116915708556e-15 
   20       1.218952848719e-10       6.960575453000e-16       1.735112421884e-13       1.634923015590e-17       3.139983638684e-10       2.986963970337e-11       4.178950523640e-16 
   21       1.236840123090e-10       8.273741829072e-16       1.834830206073e-13       1.799951457756e-17       2.883573021811e-10       2.760243463497e-11      -1.297255959031e-15 
   22       1.255253987334e-10       9.769047750008e-16       1.937766150170e-13       1.973060483719e-17       2.655859211323e-10       2.555359999235e-11      -5.508496637825e-15 
   23       1.274243163130e-10       1.144848273393e-15       2.040647640551e-13       2.154265534311e-17       2.453721977544e-10       2.371506676750e-11      -1.047337353554e-14 
   24       1.293744027629e-10       1.331435491287e-15       2.139326708196e-13       2.343580779323e-17       2.272498694389e-10       2.207081461375e-11      -1.433778042497e-14 
   25       1.313776125548e-10       1.536752492772e-15       2.230926173266e-13       2.541019675590e-17       2.110064528474e-10       2.060007272226e-11      -1.626983945060e-14 
   26       1.334227014913e-10       1.761074087529e-15       2.312981869419e-13       2.746594596855e-17       1.963485929484e-10       1.926615994349e-11      -1.593290617914e-14 
   27       1.355046405768e-10       2.006414567207e-15       2.384323895652e-13       2.960317368861e-17       1.831009164598e-10       1.805177963278e-11      -1.394333918248e-14 
   28       1.376116943274e-10       2.275305675117e-15       2.444496959482e-13       3.182199016391e-17       1.710354975447e-10       1.693805015782e-11      -1.130861560244e-14 
   29       1.397530252243e-10       2.569153468745e-15       2.494199903518e-13       3.412250630670e-17       1.600910560935e-10       1.592300202320e-11      -8.694803638100e-15 
   30       1.419330926799e-10       2.888992162097e-15       2.534890344935e-13       3.650482647932e-17       1.501504339861e-10       1.500085459640e-11      -6.780557744079e-15 
   31       1.441458883660e-10       3.235821377409e-15       2.568048522477e-13       3.896904845811e-17       1.410112931614e-10       1.415713093542e-11      -6.191227125132e-15 
   32       1.463944251478e-10       3.610699230087e-15       2.593113036679e-13       4.151527429211e-17       1.326266384877e-10       1.338335192623e-11      -6.736511074974e-15 
   33       1.486758724630e-10       4.014675851588e-15       2.608759684341e-13       4.414360332435e-17       1.249373356090e-10       1.266609943971e-11      -7.873686276506e-15 
   34       1.509804975745e-10       4.448717504626e-15       2.613510268238e-13       4.685413086363e-17       1.178359742930e-10       1.198863489209e-11      -9.001023492717e-15 
   35       1.533104951075e-10       4.913541406606e-15       2.606069895260e-13       4.964695343282e-17       1.112863424336e-10       1.135292732421e-11      -9.838986628178e-15 
   36       1.556660126702e-10       5.409710090602e-15       2.585083918775e-13       5.252216548714e-17       1.052360374294e-10       1.076457531033e-11      -1.017395959241e-14 
   37       1.580429309149e-10       5.937757689298e-15       2.549321668162e-13       5.547985754950e-17       9.960648342552e-11       1.022619859896e-11      -9.836467749694e-15 
   38       1.604452798322e-10       6.498504283468e-15       2.498651410682e-13       5.852011416350e-17       9.438322828012e-11       9.735645862797e-12      -8.978594150781e-15 
   39       1.628757784207e-10       7.092839117147e-15       2.433394667010e-13       6.164301540045e-17       8.954978451572e-11       9.286663903023e-12      -7.892037511781e-15 
   40       1.653317841718e-10       7.721635155369e-15       2.354081292195e-13       6.484863748758e-17       8.506015987310e-11       8.868958166961e-12      -6.939763704998e-15 
   41       1.678080683416e-10       8.385703922739e-15       2.261238499189e-13       6.813704988089e-17       8.085489948249e-11       8.471326036271e-12      -6.460906782693e-15 
   42       1.703075938845e-10       9.085644803910e-15       2.154645203047e-13       7.150830519037e-17       7.692168153537e-11       8.093070085266e-12      -6.437183732009e-15 
   43       1.728332899847e-10       9.821944958570e-15       2.033856033654e-13       7.496244607829e-17       7.325011462887e-11       7.735749427661e-12      -6.725627206488e-15 
   44       1.753846795127e-10       1.059501523665e-14       1.898401111426e-13       7.849950782295e-17       6.981355297653e-11       7.399952153083e-12      -7.146696846751e-15 
   45       1.779594746474e-10       1.140523091034e-14       1.747799338759e-13       8.211951454705e-17       6.657862586380e-11       7.085432610405e-12      -7.524043036715e-15 
   46       1.805597307028e-10       1.225307797417e-14       1.581609766393e-13       8.582246690368e-17       6.354027324380e-11       6.791782614811e-12      -7.823300140627e-15 
   47       1.831869559369e-10       1.313904366545e-14       1.399390708536e-13       8.960835045945e-17       6.069498282195e-11       6.517809017676e-12      -8.050942437742e-15 
   48       1.858401155766e-10       1.406357401489e-14       1.200683033520e-13       9.347713865368e-17       5.803022217947e-11       6.261250289541e-12      -8.216018496829e-15 
   49       1.885154045322e-10       1.502707235997e-14       9.850082284100e-14       9.742879244302e-17       5.552376786531e-11       6.018700277759e-12      -8.330311263898e-15 
   50       1.912084049711e-10       1.602987144752e-14       7.519200293133e-14       1.014632599345e-16       5.315040379530e-11       5.786581908972e-12      -8.408796589785e-15 
   51       1.939217767681e-10       1.707214426312e-14       5.011803241322e-14       1.055804759924e-16       5.090571644442e-11       5.564556763587e-12      -8.470794138202e-15 
   52       1.966592616631e-10       1.815396642771e-14       2.326276511758e-14       1.097803619103e-16       4.878759888464e-11       5.352909202167e-12      -8.539405600120e-15 
   53       1.994233685204e-10       1.927533782827e-14      -5.387162198361e-15       1.140628250654e-16       4.678912956534e-11       5.151551112541e-12      -8.641413558852e-15 
   54       2.022152582716e-10       2.043617988834e-14      -3.584227131671e-14       1.184277585632e-16       4.489824819614e-11       4.959995076624e-12      -8.807455622006e-15 
   55       2.050352914932e-10       2.163638199296e-14      -6.811042193173e-14       1.228750492713e-16       4.310143803155e-11       4.777589383284e-12      -9.062314582376e-15 
   56       2.078850940227e-10       2.287596052174e-14      -1.021975360465e-13       1.274046050757e-16       4.139658645810e-11       4.604352906728e-12      -9.392565299648e-15 
   57       2.107658029540e-10       2.415493454213e-14      -1.381069510044e-13       1.320163337724e-16       3.978275153643e-11       4.440300629402e-12      -9.771195615346e-15 
   58       2.136773616620e-10       2.547327931990e-14      -1.758391491556e-13       1.367101352413e-16       3.825627114567e-11       4.285183697798e-12      -1.016657978632e-14 
   59       2.166184305623e-10       2.683092550475e-14      -2.153917085917e-13       1.414859014178e-16       3.681059495987e-11       4.138472791068e-12      -1.054226752689e-14 
   60       2.195862978707e-10       2.822775831600e-14      -2.567592538803e-13       1.463435162632e-16       3.543611642435e-11       3.999341489627e-12      -1.085677305109e-14 
   61       2.225781396575e-10       2.966353902174e-14      -2.999338401596e-13       1.512828712506e-16       3.412284179413e-11       3.866896507231e-12      -1.107304717025e-14 
   62       2.255953324057e-10       3.113765062304e-14      -3.449063176185e-13       1.563039159487e-16       3.286947744417e-11       3.740966401041e-12      -1.118985531965e-14 
   63       2.286399544994e-10       3.264929338101e-14      -3.916651872602e-13       1.614066187920e-16       3.167609342538e-11       3.621461188978e-12      -1.121710037151e-14 
   64       2.317134768383e-10       3.419755427111e-14      -4.401961597575e-13       1.665909530226e-16       3.054138993266e-11       3.508132483789e-12      -1.116685545040e-14 
   65       2.348167164091e-10       3.578140370326e-14      -4.904821199374e-13       1.718568971525e-16       2.946261929907e-11       3.400564694446e-12      -1.105346021140e-14 
   66       2.379497898573e-10       3.739969224190e-14      -5.425030912662e-13       1.772044354278e-16       2.843550799007e-11       3.298166227548e-12      -1.089361711835e-14 
   67       2.411120670586e-10       3.905114732615e-14      -5.962362003345e-13       1.826335582911e-16       2.745417859769e-11       3.200160688718e-12      -1.070648772201e-14 
   68       2.443027775199e-10       4.073450481407e-14      -6.516572360911e-13       1.881442709940e-16       2.651272022297e-11       3.105786168492e-12      -1.051011190415e-14 
   69       2.475230760444e-10       4.244894189903e-14      -7.087457738117e-13       1.937366204238e-16       2.561044349106e-11       3.014959658231e-12      -1.030960786873e-14 
   70       2.507743141416e-10       4.419372642447e-14      -7.674810303507e-13       1.994106745693e-16       2.474755509989e-11       2.927732074744e-12      -1.010674313092e-14 
   71       2.540573950334e-10       4.596808998639e-14      -8.278403664326e-13       2.051665155132e-16       2.392356844053e-11       2.844088673227e-12      -9.903402193605e-15 
   72       2.573727439218e-10       4.777122810160e-14      -8.897992919238e-13       2.110042401030e-16       2.313726774960e-11       2.763945570518e-12      -9.701588783806e-15 
   73       2.607202782574e-10       4.960230037600e-14      -9.533314711033e-13       2.169239606229e-16       2.238667226178e-11       2.687146268350e-12      -9.503428089090e-15 
   74       2.640993780068e-10       5.146043067289e-14      -1.018408727935e-12       2.229258054657e-16       2.166900036222e-11       2.613458176603e-12      -9.311168993980e-15 
   75       2.675088559213e-10       5.334470728122e-14      -1.085001051336e-12       2.290099198038e-16       2.098063373904e-11       2.542569136560e-12      -9.127186316362e-15 
   76       2.709475453639e-10       5.525411946247e-14      -1.153076205066e-12       2.351764589974e-16       2.031801585939e-11       2.474169569681e-12      -8.953670160061e-15 
   77       2.744162532697e-10       5.718735336063e-14      -1.222598463581e-12       2.414255659446e-16       1.968061579238e-11       2.408223903834e-12      -8.791623629430e-15 
   78       2.779161109548e-10       5.914295900823e-14      -1.293529654165e-12       2.477573908017e-16       1.906844223681e-11       2.344742556358e-12      -8.641685557133e-15 
   79       2.814479713586e-10       6.111940952819e-14      -1.365829529068e-12       2.541720983954e-16       1.848114072610e-11       2.283699006433e-12      -8.504423061679e-15 
   80       2.850123919750e-10       6.311509999747e-14      -1.439455762678e-12       2.606698687448e-16       1.791797693982e-11       2.225028074157e-12      -8.380327367899e-15 
   81       2.886096177845e-10       6.512834631077e-14      -1.514363948678e-12       2.672508975845e-16       1.737782001516e-11       2.168624199616e-12      -8.269809627419e-15 
   82       2.922395641850e-10       6.715738404419e-14      -1.590507597214e-12       2.739153968871e-16       1.685912585851e-11       2.114339721961e-12      -8.173196739134e-15 
   83       2.959017999243e-10       6.920036731890e-14      -1.667838132057e-12       2.806635953859e-16       1.635992045698e-11       2.061983158483e-12      -8.090727169682e-15 
   84       2.995958295731e-10       7.125543788768e-14      -1.746305412715e-12       2.874957355547e-16       1.587827976671e-11       2.011366992683e-12      -8.022277098301e-15 
   85       3.033220321385e-10       7.332094804299e-14      -1.825859406447e-12       2.944120628266e-16       1.541389734095e-11       1.962463910630e-12      -7.966495843678e-15 
   86       3.070808474826e-10       7.539527275076e-14      -1.906448789522e-12       3.014128355377e-16       1.496674719237e-11       1.915273430473e-12      -7.921518779829e-15 
   87       3.108724787581e-10       7.747674275635e-14      -1.988020452812e-12       3.084983287677e-16       1.453660210275e-11       1.869773820574e-12      -7.885215684746e-15 
   88       3.146968803743e-10       7.956364462841e-14      -2.070519507777e-12       3.156688348027e-16       1.412302528039e-11       1.825921210661e-12      -7.855182028512e-15 
   89       3.185537459630e-10       8.165422080280e-14      -2.153889292455e-12       3.229246635984e-16       1.372536201745e-11       1.783648702992e-12      -7.828730261405e-15 
   90       3.224424963444e-10       8.374666962646e-14      -2.238071377445e-12       3.302661432434e-16       1.334273134729e-11       1.742865483508e-12      -7.802881102012e-15 
   91       3.263622674931e-10       8.583914540131e-14      -2.323005571894e-12       3.376936204221e-16       1.297401770184e-11       1.703455932994e-12      -7.774354825341e-15 
   92       3.303118985039e-10       8.792975842814e-14      -2.408629929483e-12       3.452074608777e-16       1.261786256892e-11       1.665278738240e-12      -7.739562550926e-15 
   93       3.342902834490e-10       9.001660323654e-14      -2.494881625071e-12       3.528080576384e-16       1.227298688412e-11       1.628201447352e-12      -7.695432262132e-15 
   94       3.382975136233e-10       9.209784803622e-14      -2.581699722445e-12       3.604958561030e-16       1.193923179215e-11       1.592212011312e-12      -7.642047897499e-15 
   95       3.423338856422e-10       9.417165886293e-14      -2.669022835844e-12       3.682713336020e-16       1.161665971968e-11       1.557322452957e-12      -7.580392918397e-15 
   96       3.463995459129e-10       9.623617301616e-14      -2.756788314090e-12       3.761349925329e-16       1.130523383628e-11       1.523534520671e-12      -7.511553653675e-15 
   97       3.504944835956e-10       9.828949948992e-14      -2.844932258525e-12       3.840873609298e-16       1.100481425173e-11       1.490839286078e-12      -7.436722045987e-15 
   98       3.546185235642e-10       1.003297194035e-13      -2.933389540951e-12       3.921289930335e-16       1.071515421331e-11       1.459216741737e-12      -7.357198398122e-15 
   99       3.587713193673e-10       1.023548864325e-13      -3.022093821564e-12       4.002604698607e-16       1.043589630306e-11       1.428635398837e-12      -7.274394119330e-15 
  100       3.629523461895e-10       1.043630272391e-13      -3.110977566894e-12       4.084823997738e-16       1.016656863511e-11       1.399051884889e-12      -7.189834471654e-15 
  101       3.671608938118e-10       1.063521419034e-13      -3.199972067744e-12       4.167954190508e-16       9.906581052970e-12       1.370410541425e-12      -7.105161316253e-15 
  102       3.713960595730e-10       1.083202043541e-13      -3.289007457123e-12       4.252001924546e-16       9.655221326778e-12       1.342643021689e-12      -7.022135859740e-15 
  103       3.756567413308e-10       1.102651627989e-13      -3.378012728188e-12       4.336974138030e-16       9.411651350642e-12       1.315667888332e-12      -6.942641400498e-15 
  104       3.799418686528e-10       1.121849912759e-13      -3.466916310459e-12       4.422877864157e-16       9.175097161155e-12       1.289409756306e-12      -6.868279275635e-15 
  105       3.842511471197e-10       1.140778513084e-13      -3.555647848487e-12       4.509719602211e-16       8.945456417104e-12       1.263860533105e-12      -6.799088624627e-15 
  106       3.885844019123e-10       1.159419529922e-13      -3.644136698015e-12       4.597505871760e-16       8.722766274107e-12       1.239025739684e-12      -6.734657999246e-15 
  107       3.929413441916e-10       1.177755068057e-13      -3.732311412943e-12       4.686243409738e-16       8.507015238722e-12       1.214905518743e-12      -6.674515016344e-15 
